Time,Voltage,Current,Temperature,SOC
0.0,4.1169,-1.50911,-20.308875999999998,1.0
0.10400265455245972,3.99144,-1.60057,-20.308875999999998,0.9999770117584855
0.20200051367282867,3.9033,-1.66182,-20.308875999999998,0.9999482764565925
0.29999837279319763,3.84861,-1.69694,-20.308875999999998,0.9999195411546994
0.3999978303909302,3.79586,-1.72797,-20.308875999999998,0.9998965529131849
0.503004714846611,3.75468,-1.75165,-20.308875999999998,0.9998678176112918
0.606001541018486,3.71737,-1.77206,-20.5260952,0.9998390823093988
0.7069967687129974,3.6897,-1.7884,-20.5260952,0.9998103470075057
0.7999956607818604,3.6659,-1.80228,-20.5260952,0.9997816117056125
0.9019967168569565,3.64402,-1.81453,-20.5260952,0.9997528764037195
1.0030020028352737,3.63437,-1.57036,-20.308875999999998,0.9997241411018264
1.1000040918588638,3.63437,-1.57444,-20.308875999999998,0.9997011528603119
1.2019950896501541,3.63051,-1.57608,-20.308875999999998,0.9996724175584188
1.3070035725831985,3.62344,-1.57853,-20.308875999999998,0.9996494293169044
1.4050014317035675,3.617,-1.58098,-20.308875999999998,0.9996264410753899
1.500001922249794,3.61121,-1.58343,-20.3203102,0.9995977057734968
1.6040045768022537,3.60606,-1.58588,-20.3203102,0.9995747175319823
1.7070014029741287,3.60156,-1.58833,-20.5260952,0.9995517292904679
1.8009960651397705,3.59706,-1.59078,-20.5260952,0.9995229939885748
1.9029971212148666,3.59384,-1.59159,-20.3203102,0.9995000057470603
2.0049981772899628,3.58998,-1.59159,-20.3203102,0.9994712704451673
2.1029960364103317,3.58741,-1.59078,-20.3203102,0.9994482822036528
2.2019997239112854,3.58419,-1.59159,-20.308875999999998,0.9994195469017597
2.3040007799863815,3.58162,-1.59241,-20.308875999999998,0.9993965586602452
2.399997040629387,3.57969,-1.59404,-20.3203102,0.9993678233583522
2.5049954652786255,3.57711,-1.59486,-20.3203102,0.9993448351168377
2.6019975543022156,3.57518,-1.59568,-20.3203102,0.9993218468753233
2.7039986103773117,3.57325,-1.59649,-20.3203102,0.9992931115734301
2.801000699400902,3.57197,-1.59731,-20.3203102,0.9992701233319157
2.9010001569986343,3.57004,-1.59812,-20.3203102,0.9992413880300226
3.0030012130737305,3.56103,-1.85863,-20.3203102,0.9992183997885081
3.103000670671463,3.54301,-1.85863,-20.3203102,0.9991896644866151
3.200002759695053,3.53272,-1.86516,-20.3203102,0.999160929184722
3.3050011843442917,3.52629,-1.87088,-20.3203102,0.9991264468224503
3.4050006419420242,3.52178,-1.87333,-20.3203102,0.9990977115205573
3.5020027309656143,3.51921,-1.87578,-20.3203102,0.9990689762186642
3.6049995571374893,3.51599,-1.87823,-20.3203102,0.999040240916771
3.7009958177804947,3.51406,-1.87986,-20.3203102,0.999011505614878
3.802001103758812,3.51213,-1.88068,-20.308875999999998,0.9989770232526063
3.899998962879181,3.5102,-1.88149,-20.308875999999998,0.9989482879507132
4.004001617431641,3.50827,-1.88313,-20.308875999999998,0.9989195526488202
4.101003706455231,3.50699,-1.88394,-20.308875999999998,0.9988908173469271
4.1999973356723785,3.5057,-1.88394,-20.308875999999998,0.9988563349846553
4.299996793270111,3.50441,-1.88558,-20.3203102,0.9988275996827622
4.403999447822571,3.50313,-1.88558,-20.3203102,0.9987988643808692
4.506000503897667,3.50184,-1.88639,-20.3203102,0.9987701290789761
4.603002592921257,3.50055,-1.88721,-20.3203102,0.998741393777083
4.700004681944847,3.49991,-1.88721,-20.3203102,0.9987069114148113
4.805003106594086,3.49927,-1.88802,-20.3203102,0.9986781761129182
4.900003597140312,3.49798,-1.88884,-20.3203102,0.9986494408110251
5.000998824834824,3.49734,-1.88884,-20.3203102,0.9986207055091321
5.100998282432556,3.49605,-1.88966,-20.3203102,0.9985862231468604
5.204005166888237,3.49541,-1.89047,-20.3203102,0.9985574878449673
5.300001427531242,3.49476,-1.89047,-20.3203102,0.9985287525430743
5.4020024836063385,3.49348,-1.89129,-20.308875999999998,0.9985000172411811
5.5049993097782135,3.49283,-1.89129,-20.308875999999998,0.9984655348789094
5.602001398801804,3.49219,-1.89129,-20.308875999999998,0.9984367995770164
5.6999992579221725,3.49155,-1.89211,-20.3203102,0.9984080642751233
5.806003510951996,3.4909,-1.89211,-20.3203102,0.9983793289732302
5.904001370072365,3.49026,-1.89292,-20.3203102,0.9983448466109585
6.001999229192734,3.48962,-1.89292,-20.3203102,0.9983161113090654
6.1060018837451935,3.48897,-1.89374,-20.3203102,0.9982873760071723
6.206001341342926,3.48833,-1.89374,-20.3203102,0.9982586407052793
6.301997601985931,3.48833,-1.89374,-20.3203102,0.9982241583430076
6.3999954611063,3.48768,-1.89456,-20.3203102,0.9981954230411144
6.50399811565876,3.48704,-1.89456,-20.3203102,0.9981666877392213
6.600004434585571,3.4864,-1.89537,-20.3203102,0.9981379524373283
6.703001260757446,3.48575,-1.89537,-20.3203102,0.9981034700750566
6.800003349781036,3.48511,-1.89537,-20.3203102,0.9980747347731636
6.900002807378769,3.48447,-1.89619,-20.3203102,0.9980459994712705
7.0000022649765015,3.48382,-1.89619,-20.3203102,0.9980115171089987
7.100997492671013,3.48382,-1.89619,-20.3203102,0.9979827818071056
7.2000011801719666,3.48318,-1.89701,-20.3203102,0.9979540465052126
7.304003834724426,3.48254,-1.89701,-20.3203102,0.9979253112033195
7.404003292322159,3.48189,-1.89701,-20.3203102,0.9978908288410478
7.507000118494034,3.48189,-1.89782,-20.3203102,0.9978620935391547
7.6060038059949875,3.48125,-1.89864,-20.308875999999998,0.9978333582372616
7.7040016651153564,3.48125,-1.89864,-20.308875999999998,0.9978046229353685
7.804001122713089,3.48061,-1.89864,-20.308875999999998,0.9977701405730969
7.901998981833458,3.47996,-1.89864,-20.308875999999998,0.9977414052712038
7.999996840953827,3.48962,-1.78758,-20.308875999999998,0.9977126699693107
8.103003725409508,3.5057,-1.66999,-20.308875999999998,0.9976839346674177
8.20399895310402,3.51406,-1.63242,-20.3203102,0.9976551993655245
8.299995213747025,3.51857,-1.62099,-20.3203102,0.99763221112401
8.403002098202705,3.52114,-1.61527,-20.3203102,0.997603475822117
8.500004187226295,3.52307,-1.61364,-20.3203102,0.9975804875806025
8.600003644824028,3.52436,-1.61201,-20.3203102,0.9975517522787094
8.705997839570045,3.525,-1.61119,-20.3203102,0.9975287640371949
8.805001527071,3.52564,-1.61119,-20.3203102,0.9975000287353019
8.904005214571953,3.52629,-1.61037,-20.3203102,0.9974770404937874
9.000997245311737,3.51792,-1.71245,-20.3203102,0.9974483051918943
9.104999899864197,3.5012,-1.82923,-20.3203102,0.9974195698900012
9.200996160507202,3.49219,-1.87006,-20.3203102,0.9973908345881082
9.304998815059662,3.48768,-1.88231,-20.3203102,0.9973620992862151
9.40299667418003,3.48447,-1.88721,-20.3203102,0.997333363984322
9.504997730255127,3.48189,-1.89047,-20.3203102,0.9972988816220503
9.601004049181938,3.48061,-1.89211,-20.308875999999998,0.9972701463201572
9.706002473831177,3.47932,-1.89292,-20.308875999999998,0.9972414110182641
9.80600193142891,3.47868,-1.89374,-20.3203102,0.9972126757163711
9.9030040204525,3.47739,-1.89374,-20.3203102,0.997183940414478
10.008002445101738,3.46388,-2.15833,-20.3203102,0.9971494580522063
10.098999738693237,3.45166,-2.16568,-20.3203102,0.9971149756899346
10.203002393245697,3.44136,-2.17466,-20.3203102,0.9970804933276629
10.305999219417572,3.43557,-2.18119,-20.3203102,0.9970460109653912
10.403997078537941,3.43236,-2.18446,-20.3203102,0.9970115286031195
10.503996536135674,3.42978,-2.18691,-20.308875999999998,0.9969770462408478
10.603995993733406,3.42785,-2.18854,-20.308875999999998,0.9969425638785762
10.705001279711723,3.42657,-2.19017,-20.3203102,0.9969080815163044
10.800997540354729,3.42528,-2.19099,-20.3203102,0.9968735991540327
10.905995965003967,3.42464,-2.19181,-20.3203102,0.996839116791761
11.002998054027557,3.42335,-2.19589,-20.3203102,0.9968046344294893
11.104999110102654,3.42142,-2.20079,-20.3203102,0.9967701520672176
11.202001199126244,3.42077,-2.20242,-20.3203102,0.9967356697049459
11.304998025298119,3.42013,-2.20406,-20.3203102,0.9966954402822956
11.407994851469994,3.41949,-2.20406,-20.3203102,0.996660957920024
11.506002768874168,3.41884,-2.20487,-20.3203102,0.9966264755577522
11.601999029517174,3.4182,-2.20487,-20.3203102,0.9965919931954805
11.706997454166412,3.41756,-2.20569,-20.3203102,0.9965575108332088
11.803003773093224,3.41691,-2.20569,-20.3203102,0.9965230284709371
11.903003230690956,3.41691,-2.20569,-20.3203102,0.9964885461086654
12.006000056862831,3.42721,-1.93702,-20.3203102,0.9964483166860151
12.103002145886421,3.44136,-1.93621,-20.308875999999998,0.996419581384122
12.203997373580933,3.44973,-1.92967,-20.308875999999998,0.9963908460822289
12.300999462604523,3.45294,-1.92559,-20.308875999999998,0.9963563637199573
12.405002117156982,3.45616,-1.92232,-20.308875999999998,0.9963276284180642
12.50399574637413,3.45745,-1.92151,-20.308875999999998,0.996298893116171
12.602999433875084,3.45873,-1.91987,-20.308875999999998,0.9962644107538994
12.705996260046959,3.45938,-1.91987,-20.308875999999998,0.9962356754520063
12.804004177451134,3.46002,-1.91906,-20.3203102,0.9962069401501132
12.904003635048866,3.46002,-1.91906,-20.3203102,0.9961724577878415
13.00099566578865,3.45101,-2.02195,-20.103091000000003,0.9961437224859484
13.099999353289604,3.43364,-2.15261,-20.103091000000003,0.9961092401236767
13.2020004093647,3.42528,-2.19017,-20.308875999999998,0.9960747577614051
13.306998834013939,3.42013,-2.20569,-20.308875999999998,0.9960402753991333
13.404996693134308,3.41756,-2.21059,-20.0802328,0.9960057930368617
13.503004610538483,3.41563,-2.21386,-20.0802328,0.99597131067459
13.60199823975563,3.41434,-2.21549,-20.0802328,0.9959368283123182
13.706996664404869,3.41241,-2.21712,-20.3203102,0.9959023459500466
13.806000351905823,3.41177,-2.21794,-20.3203102,0.9958678635877749
13.899995014071465,3.41112,-2.21794,-20.308875999999998,0.9958333812255031
14.00199607014656,3.40984,-2.22121,-20.308875999999998,0.9957931518028529
14.103997126221657,3.40919,-2.22447,-20.308875999999998,0.9957586694405811
14.205002412199974,3.40855,-2.22611,-20.308875999999998,0.9957241870783095
14.302004501223564,3.40791,-2.22611,-20.308875999999998,0.9956897047160378
14.400002360343933,3.40726,-2.22611,-20.308875999999998,0.995655222353766
14.500001817941666,3.40726,-2.22692,-20.3203102,0.9956149929311158
14.605000242590904,3.40662,-2.22692,-20.3203102,0.995580510568844
14.704999700188637,3.40598,-2.22692,-20.3203102,0.9955460282065723
14.802001789212227,3.40598,-2.22774,-20.0916568,0.9955115458443007
14.906004443764687,3.40533,-2.22774,-20.0916568,0.9954713164216503
15.004002302885056,3.41112,-2.15424,-20.0916568,0.9954368340593787
15.101004391908646,3.4285,-2.01297,-20.0916568,0.9954080987574856
15.206998586654663,3.4375,-1.9656,-20.0916568,0.9953736163952138
15.306998044252396,3.44201,-1.9509,-20.0916568,0.9953448810933208
15.401998534798622,3.44522,-1.94437,-20.0916568,0.9953103987310491
15.50300382077694,3.44651,-1.94192,-20.0916568,0.995281663429156
15.605004876852036,3.44844,-1.94029,-20.0916568,0.9952471810668843
15.701001137495041,3.44908,-1.94029,-20.0916568,0.9952184457649912
15.803002193570137,3.44908,-1.93947,-20.0916568,0.9951897104630981
15.901995822787285,3.44973,-1.93947,-20.103091000000003,0.9951552281008265
16.00099951028824,3.45037,-1.93947,-20.103091000000003,0.9951264927989334
16.1050021648407,3.45037,-1.93866,-20.0916568,0.9950920104366616
16.20599739253521,3.45037,-1.93866,-20.0916568,0.9950632751347686
16.305001080036163,3.45037,-1.93784,-20.0916568,0.9950345398328755
16.40700213611126,3.45101,-1.93866,-20.0916568,0.9950000574706038
16.502002626657486,3.45037,-1.93866,-20.0916568,0.9949713221687106
16.607001051306725,3.45037,-1.93784,-20.0916568,0.994936839806439
16.70200154185295,3.45037,-1.93784,-20.0916568,0.9949081045045459
16.80699996650219,3.45037,-1.93784,-20.103091000000003,0.9948793692026529
16.90400205552578,3.45037,-1.93784,-20.103091000000003,0.9948448868403812
17.00100414454937,3.46002,-1.82923,-20.0916568,0.994816151538488
17.10299514234066,3.47803,-1.70184,-20.0916568,0.994787416236595
17.204000428318977,3.4864,-1.66672,-20.0916568,0.9947586809347019
17.30499565601349,3.49155,-1.65284,-20.0916568,0.9947299456328088
17.405005171895027,3.49476,-1.64794,-20.0916568,0.9947069573912943
17.50199720263481,3.49669,-1.64549,-20.0916568,0.9946839691497799
17.60599985718727,3.49798,-1.64386,-20.0916568,0.9946552338478868
17.701000347733498,3.49991,-1.64304,-20.0916568,0.9946264985459937
17.803997173905373,3.50055,-1.64304,-20.0916568,0.9946035103044792
17.907004058361053,3.5012,-1.64222,-20.0916568,0.9945747750025862
18.0059976875782,3.50184,-1.63977,-20.0916568,0.9945517867610717
18.10700297355652,3.50248,-1.63651,-20.0916568,0.9945230514591786
18.202003464102745,3.50313,-1.63569,-20.0916568,0.9945000632176642
18.30400452017784,3.50377,-1.63569,-20.0916568,0.9944713279157711
18.40200237929821,3.50377,-1.63569,-20.0916568,0.9944483396742566
18.50700080394745,3.50441,-1.63569,-20.0916568,0.9944196043723635
18.60400289297104,3.50441,-1.63487,-20.0916568,0.9943908690704705
18.699999153614044,3.50441,-1.63487,-20.0916568,0.994367880828956
18.804001808166504,3.50506,-1.63406,-20.0916568,0.9943391455270629
18.90299543738365,3.50506,-1.63406,-20.0916568,0.9943161572855485
18.999997526407242,3.50506,-1.63161,-20.0916568,0.9942874219836554
19.10100281238556,3.5057,-1.62997,-20.0916568,0.9942644337421409
19.206001237034798,3.5057,-1.62916,-20.0916568,0.9942356984402478
19.30699646472931,3.50634,-1.62834,-20.0916568,0.9942127101987334
19.405004382133484,3.50634,-1.62834,-20.0916568,0.9941839748968403
19.50100064277649,3.50634,-1.62752,-20.0916568,0.9941609866553258
19.60500329732895,3.50634,-1.62834,-20.0916568,0.9941322513534327
19.700999557971954,3.50634,-1.62834,-20.0916568,0.9941092631119183
19.800999015569687,3.50634,-1.62834,-20.0916568,0.9940805278100252
19.905997440218925,3.50634,-1.62752,-20.0916568,0.9940517925081321
20.000002160668373,3.51792,-1.5034,-20.0916568,0.9940288042666177
20.10599635541439,3.53465,-1.39397,-20.0916568,0.9940058160251032
20.202002674341202,3.54366,-1.35886,-20.0916568,0.9939828277835887
20.30099630355835,3.5488,-1.34742,-20.0802328,0.9939598395420742
20.40400318801403,3.55266,-1.34171,-20.0802328,0.9939425983609383
20.504998415708542,3.55524,-1.34007,-20.0802328,0.9939196101194239
20.604997873306274,3.55653,-1.33926,-20.0916568,0.9938966218779095
20.704001560807228,3.55846,-1.33844,-20.0916568,0.993873633636395
20.80499678850174,3.55974,-1.33762,-20.0802328,0.9938563924552591
20.90199887752533,3.56103,-1.33681,-20.0802328,0.9938334042137447
21.004995703697205,3.57004,-1.23636,-20.0916568,0.9938104159722302
21.101002022624016,3.58934,-1.10897,-20.0916568,0.9937931747910943
21.199995651841164,3.60092,-1.06814,-20.0916568,0.9937759336099585
21.303998306393623,3.60735,-1.05589,-20.0916568,0.9937586924288226
21.401000395417213,3.61185,-1.05181,-20.0916568,0.9937414512476868
21.500999853014946,3.61443,-1.04936,-20.0916568,0.993724210066551
21.603000909090042,3.617,-1.04854,-20.0916568,0.9937069688854151
21.70500196516514,3.61957,-1.04772,-19.885882,0.9936897277042792
21.800002455711365,3.62086,-1.04691,-19.885882,0.9936724865231434
21.905000880360603,3.62215,-1.04609,-19.885882,0.9936552453420076
22.00099714100361,3.63437,-0.76926,-19.885882,0.9936380041608717
22.102002426981926,3.65239,-0.77252,-20.0916568,0.9936265100401145
22.2049992531538,3.66397,-0.77171,-20.0916568,0.9936150159193573
22.30200134217739,3.67233,-0.76926,-20.0916568,0.9936035217986
22.40099497139454,3.67683,-0.76762,-20.0916568,0.9935920276778428
22.502996027469635,3.68069,-0.76681,-20.0916568,0.9935805335570855
22.599998116493225,3.68391,-0.76599,-19.9430428,0.9935690394363283
22.704996541142464,3.68648,-0.76517,-19.9430428,0.9935575453155711
22.80600182712078,3.68842,-0.76436,-20.0916568,0.9935460511948139
22.90300391614437,3.69035,-0.76436,-20.0916568,0.993528810013678
23.003003373742104,3.6659,-1.46257,-20.0916568,0.9935173158929208
23.103998601436615,3.617,-1.49115,-20.0916568,0.9934943276514063
23.205003887414932,3.59127,-1.50993,-20.0916568,0.9934713394098919
23.301995918154716,3.57454,-1.523,-20.0916568,0.9934483511683774
23.40199537575245,3.56296,-1.53116,-20.0916568,0.9934196158664843
23.503000661730766,3.55588,-1.53606,-19.8744478,0.9933966276249698
23.603995889425278,3.54945,-1.54096,-19.8744478,0.9933736393834554
23.700997978448868,3.54494,-1.54341,-20.0916568,0.9933506511419409
23.802999034523964,3.54108,-1.54504,-20.0916568,0.9933219158400478
23.907001689076424,3.53851,-1.54668,-20.0916568,0.9932989275985333
24.004003778100014,3.55974,-0.75946,-20.0916568,0.9932759393570189
24.100995808839798,3.61185,-0.76109,-20.0916568,0.9932644452362617
24.204998463392258,3.64145,-0.75537,-20.0916568,0.9932529511155044
24.30400215089321,3.6556,-0.75047,-20.0916568,0.9932414569947472
24.40200001001358,3.6659,-0.74721,-20.0802328,0.9932242158136113
24.50299523770809,3.67426,-0.74476,-20.0802328,0.9932127216928541
24.599001556634903,3.68005,-0.74312,-20.0916568,0.9932012275720968
24.701998382806778,3.68391,-0.74149,-20.0916568,0.9931897334513397
24.803999438881874,3.68842,-0.74067,-20.0916568,0.9931782393305824
24.901997298002243,3.69099,-0.73986,-19.8744478,0.9931667452098252
25.00399835407734,3.70257,-0.6435,-19.8744478,0.993155251089068
25.10399781167507,3.72573,-0.51692,-20.0916568,0.9931437569683107
25.200999900698662,3.73731,-0.48589,-20.0916568,0.9931380099079321
25.300999358296394,3.74567,-0.47446,-19.885882,0.9931322628475535
25.40300041437149,3.75275,-0.47037,-19.885882,0.9931207687267962
25.50700306892395,3.7579,-0.46874,-19.885882,0.9931150216664176
25.602003559470177,3.76176,-0.46792,-20.0916568,0.993109274606039
25.70500038564205,3.76562,-0.46792,-20.0916568,0.9930977804852817
25.800996646285057,3.76819,-0.46711,-19.885882,0.9930920334249032
25.90799666941166,3.77141,-0.46711,-19.885882,0.9930862863645246
26.002997159957886,3.72959,-1.39479,-19.885882,0.993080539304146
26.106004044413567,3.6659,-1.41112,-19.885882,0.9930575510626315
26.204001903533936,3.64016,-1.425,-19.885882,0.993034562821117
26.304997131228447,3.61571,-1.4397,-19.885882,0.9930115745796025
26.406002417206764,3.60027,-1.4495,-19.885882,0.9929885863380881
26.50199867784977,3.58805,-1.45685,-19.8744478,0.9929655980965736
26.601002365350723,3.58033,-1.46175,-19.8744478,0.9929426098550591
26.701001822948456,3.57325,-1.46583,-19.885882,0.9929196216135446
26.80100128054619,3.56811,-1.46828,-19.885882,0.9928966333720302
26.905999705195427,3.5636,-1.47073,-19.885882,0.9928678980701371
27.00500339269638,3.57004,-1.36049,-19.885882,0.9928449098286226
27.100999653339386,3.58355,-1.25514,-19.885882,0.9928276686474868
27.205998077988625,3.58998,-1.22248,-19.885882,0.9928046804059724
27.30099856853485,3.5932,-1.21268,-19.885882,0.9927874392248365
27.402999624609947,3.59513,-1.20941,-19.885882,0.992764450983322
27.504004910588264,3.59641,-1.20696,-19.885882,0.9927472098021862
27.605995908379555,3.59706,-1.20615,-19.885882,0.9927299686210503
27.70099639892578,3.5977,-1.20615,-19.885882,0.9927127274399145
27.802997455000877,3.59834,-1.20615,-19.885882,0.9926897391984
27.899999544024467,3.59834,-1.20615,-19.885882,0.9926724980172642
28.004997968673706,3.61057,-1.07794,-19.885882,0.9926495097757497
28.106003254652023,3.62601,-0.98484,-19.8744478,0.9926322685946138
28.204001113772392,3.6363,-0.95055,-19.8744478,0.9926207744738567
28.30199897289276,3.64145,-0.94156,-19.8744478,0.9926035332927208
28.404000028967857,3.64531,-0.93748,-19.8744478,0.9925862921115849
28.506996855139732,3.64853,-0.93503,-19.885882,0.9925747979908277
28.599995747208595,3.6511,-0.93421,-19.885882,0.9925575568096918
28.701001033186913,3.65239,-0.9334,-19.885882,0.9925460626889346
28.801996260881424,3.65367,-0.9334,-19.885882,0.9925288215077988
28.905003145337105,3.65496,-0.93258,-19.885882,0.9925115803266629
29.00099940598011,3.65689,-0.92605,-19.8744478,0.9925000862059057
29.10500206053257,3.65882,-0.9187,-19.8744478,0.9924828450247698
29.20299991965294,3.66011,-0.91625,-19.8744478,0.9924713509040126
29.302003607153893,3.66139,-0.91543,-19.8744478,0.9924541097228767
29.40700203180313,3.66268,-0.91461,-19.8744478,0.9924426156021195
