Time,Current,Voltage,Temperature,SOC
0.0,-2.77324,4.04613,-20.331744399999998,1.0
0.0950004905462265,-2.80591,3.86663,-20.331744399999998,0.9999552166496342
0.1999989151954651,-2.91778,3.72637,-20.3203102,0.9999086478131317
0.29599517583847046,-3.00679,3.64016,-20.3203102,0.9998606583444578
0.4010036587715149,-3.09254,3.56167,-20.3203102,0.9998113002744056
0.4949983209371567,-3.15297,3.50892,-20.3203102,0.9997609777194401
0.5990009754896164,-3.21013,3.46066,-20.3203102,0.9997097428699581
0.6960030645132065,-3.25015,3.42785,-20.3203102,0.9996578692866316
0.7999956607818604,-3.28608,3.39954,-20.3203102,0.9996054222473573
0.8999951183795929,-3.31629,3.37574,-20.3203102,0.9995524930454281
0.9949956089258194,-3.36039,3.35708,-20.3203102,0.9994988599913616
1.0989982634782791,-3.4102,3.33778,-20.3203102,0.999444431951468
1.1960003525018692,-3.43225,3.32556,-20.3203102,0.9993896519855057
1.2950040400028229,-3.4494,3.31333,-20.308875999999998,0.9993345982992677
1.3989966362714767,-3.46247,3.30433,-20.308875999999998,0.999279336011047
1.5020035207271576,-3.4739,3.29596,-20.3203102,0.9992238912958438
1.6000013798475266,-3.48125,3.29017,-20.3203102,0.9991683292719509
1.700996607542038,-3.48942,3.28374,-20.3203102,0.9991126368518684
1.7970029264688492,-3.49513,3.27859,-20.3203102,0.9990568532980965
1.900995522737503,-3.50085,3.27409,-20.3203102,0.9990009784510313
2.0009949803352356,-3.42,3.27666,-20.3203102,0.9989463939995517
2.097001299262047,-3.31548,3.28502,-20.3203102,0.998893477725519
2.1970007568597794,-3.28689,3.2876,-20.3203102,0.9988410177583482
2.297000214457512,-3.2771,3.28695,-20.3203102,0.9987887140431599
2.3979954421520233,-3.27465,3.28567,-20.308875999999998,0.9987364494308681
2.4999964982271194,-3.27465,3.28438,-20.308875999999998,0.9986841848185763
2.599000185728073,-3.27628,3.28245,-20.3203102,0.9986318941908882
2.7010012418031693,-3.2771,3.28052,-20.3203102,0.9985795904756999
2.798999100923538,-3.27873,3.27923,-20.3203102,0.9985272607451151
2.9010001569986343,-3.28118,3.2773,-20.3203102,0.9984748919116337
2.996000647544861,-2.35023,3.31655,-20.3203102,0.9984373813808147
3.1009990721940994,-2.22447,3.37188,-20.3203102,0.9984018780256151
3.195003792643547,-2.17139,3.39761,-20.3203102,0.998367221846639
3.3000022172927856,-2.14444,3.41241,-20.3203102,0.9983329957995246
3.395998477935791,-2.12974,3.42142,-20.3203102,0.9982990043697894
3.498995304107666,-2.12321,3.42657,-20.3203102,0.9982651171612438
3.5979989916086197,-2.11995,3.42978,-20.3203102,0.998231281983491
3.6970026791095734,-2.1175,3.43171,-20.3203102,0.9981974859086349
3.7999995052814484,-2.11586,3.433,-20.3203102,0.9981637160087787
3.899003192782402,-2.11505,3.43493,-20.3203102,0.9981299590368191
4.002000018954277,-2.11586,3.43493,-20.3203102,0.9980961891369631
4.099002107977867,-2.1175,3.43557,-20.3203102,0.9980623930621069
4.1990015655756,-2.11831,3.43557,-20.3203102,0.9980285840593542
4.301002621650696,-2.11913,3.43557,-20.3203102,0.9979947619691015
4.399000480771065,-2.11913,3.43557,-20.3203102,0.9979609398788489
4.49499674141407,-2.11913,3.43557,-20.308875999999998,0.9979271177885962
4.596002027392387,-2.11913,3.43557,-20.308875999999998,0.9978932956983436
4.700004681944847,-2.11831,3.43557,-20.3203102,0.997859486695591
4.794995114207268,-2.11913,3.43493,-20.3203102,0.9978256646053384
4.900999367237091,-2.11913,3.43493,-20.308875999999998,0.9977918425150857
4.995999857783318,-2.22039,3.42657,-20.308875999999998,0.997756404278179
5.100002512335777,-2.35676,3.40855,-20.308875999999998,0.9977187895261704
5.198000371456146,-2.39515,3.40019,-20.308875999999998,0.9976805620557139
5.302003026008606,-2.41311,3.3944,-20.308875999999998,0.9976420479370852
5.395001918077469,-2.41964,3.39182,-20.308875999999998,0.997603429597267
5.498994514346123,-2.42209,3.38925,-20.308875999999998,0.9975647721545523
5.595996603369713,-2.42454,3.38796,-20.308875999999998,0.997526075608941
5.695996060967445,-2.42618,3.38668,-20.308875999999998,0.9974873528883296
5.799002945423126,-2.42699,3.38539,-20.3203102,0.9974486172398218
5.8959949761629105,-2.42699,3.38475,-20.3203102,0.997409881591314
5.996004492044449,-2.55194,3.37317,-20.3203102,0.9973691516950833
6.097995489835739,-2.66545,3.35837,-20.308875999999998,0.997326610137716
6.196999177336693,-2.72343,3.34679,-20.308875999999998,0.997283143198332
6.294997036457062,-2.73894,3.34228,-20.308875999999998,0.9972394287136724
6.396998092532158,-2.74793,3.33842,-20.308875999999998,0.9971955707453232
6.499994918704033,-2.75119,3.33649,-20.3203102,0.9971516607461809
6.5939996391534805,-2.75364,3.33456,-20.3203102,0.9971077116441422
6.700003892183304,-2.75609,3.33263,-20.308875999999998,0.9970637234392069
6.800003349781036,-2.75691,3.33135,-20.308875999999998,0.9970197221467716
6.895999610424042,-2.75773,3.33006,-20.3203102,0.9969757077668362
6.998000666499138,-2.6336,3.34035,-20.3203102,0.9969336745471237
7.0970043540000916,-2.53642,3.35258,-20.3203102,0.9968931923557722
7.200996950268745,-2.50376,3.35837,-20.3203102,0.9968532314299721
7.300996407866478,-2.49314,3.36094,-20.3203102,0.996813440003258
7.3959968984127045,-2.48824,3.36287,-20.308875999999998,0.996773726782337
7.502001151442528,-2.48579,3.36416,-20.308875999999998,0.9967340526643126
7.5959958136081696,-2.48497,3.36416,-20.3203102,0.9966943916337881
7.69900269806385,-2.48497,3.3648,-20.3203102,0.9966547306032638
7.797000557184219,-2.48416,3.3648,-20.3203102,0.9966150825006358
7.899997383356094,-2.48416,3.3648,-20.3203102,0.9965754343980078
8.001002669334412,-2.48987,3.36416,-20.3203102,0.9965356951616904
8.096003159880638,-2.49722,3.36287,-20.0916568,0.9964958386166833
8.201997354626656,-2.49967,3.36223,-20.0916568,0.9964559429687798
8.30100104212761,-2.49967,3.36159,-20.3203102,0.9964160473208762
8.396997302770615,-2.50131,3.36159,-20.3203102,0.9963761254979725
8.496000990271568,-2.50131,3.36094,-20.308875999999998,0.9963362036750688
8.600003644824028,-2.50131,3.3603,-20.308875999999998,0.9962962818521651
8.696995675563812,-2.50212,3.3603,-20.3203102,0.9962563471013651
8.800002560019493,-2.50212,3.35966,-20.3203102,0.996216412350565
8.89500305056572,-2.50294,3.35966,-20.3203102,0.9961764645122648
8.995002508163452,-2.39923,3.36802,-20.3203102,0.9961381719235153
9.097003564238548,-2.28654,3.38217,-20.3203102,0.9961016779084023
9.200000390410423,-2.24407,3.39054,-20.0916568,0.9960658617300304
9.297002479434013,-2.22774,3.3944,-20.0916568,0.9960303061844341
9.395996108651161,-2.22202,3.39697,-20.103091000000003,0.995994841932131
9.499002993106842,-2.22039,3.39826,-20.103091000000003,0.9959594036952243
9.601004049181938,-2.21876,3.39954,-20.3203102,0.995923991473714
9.699997678399086,-2.21712,3.40019,-20.3203102,0.9958886054272039
9.797995537519455,-2.21712,3.40083,-20.103091000000003,0.9958532193806938
9.901998192071915,-2.21712,3.40083,-20.103091000000003,0.9958178333341836
9.998004510998726,-2.77732,3.3841,-20.103091000000003,0.9957735062906797
10.101001337170601,-2.79121,3.35065,-20.3203102,0.995728957557693
10.19899919629097,-2.81326,3.33199,-20.3203102,0.9956840568986376
10.298002883791924,-2.82632,3.32298,-20.103091000000003,0.9956389477972031
10.400999709963799,-2.8353,3.31719,-20.103091000000003,0.9955936953716825
10.500003397464752,-2.84184,3.31333,-20.103091000000003,0.9955483385653687
10.600998625159264,-2.8451,3.31076,-20.103091000000003,0.9955029297282622
10.696994885802269,-2.84755,3.30883,-20.103091000000003,0.9954574817882589
10.797004401683807,-2.84919,3.3069,-20.103091000000003,0.9954120076732555
10.902002826333046,-2.85082,3.30561,-20.103091000000003,0.9953665075428558
11.000000685453415,-2.85899,3.30433,-20.0916568,0.9953208770162664
11.102001741528511,-2.87613,3.30111,-20.0916568,0.9952749729290049
11.202001199126244,-2.88103,3.29982,-20.0916568,0.9952289906359504
11.295995861291885,-2.8843,3.29854,-20.0916568,0.9951829561524993
11.397001147270203,-2.88512,3.29789,-20.0916568,0.9951369085815481
11.501003801822662,-2.88675,3.29661,-20.0916568,0.9950908349952005
11.59999743103981,-2.88675,3.29596,-20.0916568,0.9950447614088529
11.701998487114906,-2.88757,3.29532,-20.0916568,0.9949986747350051
11.80100217461586,-2.88838,3.29532,-20.0916568,0.9949525751332611
11.899000033736229,-2.88838,3.29468,-20.0916568,0.994906475531517
11.99999526143074,-2.35187,3.31719,-20.0916568,0.9948689388256978
12.096001580357552,-2.33227,3.34421,-20.0916568,0.9948317149430509
12.196001037955284,-2.3143,3.35966,-20.0916568,0.9947947778681797
12.300999462604523,-2.30287,3.36738,-20.0916568,0.9947580232202912
12.39500418305397,-2.29633,3.37252,-20.0916568,0.9947213729531957
12.498996779322624,-2.29225,3.37574,-20.0916568,0.9946847878043933
12.602003663778305,-2.2898,3.37767,-20.103091000000003,0.9946482417584874
12.697004154324532,-2.28817,3.37896,-20.103091000000003,0.9946117217279781
12.798995152115822,-2.28735,3.38024,-20.103091000000003,0.9945752147849687
12.897003069519997,-2.28654,3.38089,-20.103091000000003,0.9945387207698557
13.002001494169235,-2.28899,3.38153,-20.103091000000003,0.9945021876518463
13.097001984715462,-2.29062,3.38153,-20.103091000000003,0.9944656285184403
13.201004639267921,-2.29144,3.38153,-20.103091000000003,0.9944290562975343
13.301004096865654,-2.29144,3.38153,-20.103091000000003,0.9943924840766283
13.395994529128075,-2.29225,3.38153,-20.103091000000003,0.9943558989278258
13.496999815106392,-2.29225,3.38153,-20.103091000000003,0.9943193137790234
13.596003502607346,-2.29144,3.38217,-20.103091000000003,0.9942827415581175
13.699996098876,-2.29144,3.38217,-20.103091000000003,0.9942461693372114
13.794996589422226,-2.29144,3.38217,-20.103091000000003,0.9942095971163054
13.898999243974686,-2.29144,3.38217,-20.103091000000003,0.9941730248953994
13.996001332998276,-2.2947,3.38153,-20.103091000000003,0.9941364006437005
14.100003987550735,-2.29878,3.38153,-20.103091000000003,0.9940997112737086
14.200003445148468,-2.2996,3.38089,-20.103091000000003,0.9940630088162166
14.298001304268837,-2.30042,3.38089,-20.103091000000003,0.9940262932712245
14.395999163389206,-2.30042,3.38089,-20.103091000000003,0.9939895777262324
14.495998620986938,-2.30123,3.38024,-20.103091000000003,0.9939528492533439
14.600997045636177,-2.30123,3.38024,-20.103091000000003,0.9939161207804554
14.695997536182404,-2.30123,3.38024,-20.103091000000003,0.9938793923075671
14.79700282216072,-2.30123,3.38024,-20.103091000000003,0.9938426638346786
14.899999648332596,-2.30042,3.38024,-20.103091000000003,0.9938059482896865
14.997001737356186,-2.02603,3.38925,-20.103091000000003,0.9937736121095019
15.099002793431282,-2.02358,3.40533,-20.103091000000003,0.9937413150322139
15.194999054074287,-2.01787,3.41305,-20.103091000000003,0.9937091090886152
15.30199907720089,-2.01297,3.4182,-20.103091000000003,0.9936769813508096
15.399996936321259,-2.01052,3.42077,-20.103091000000003,0.9936448927159006
15.494997426867485,-2.00807,3.42271,-20.103091000000003,0.9936128431838881
15.596002712845802,-2.00643,3.42464,-20.103091000000003,0.9935808198268757
15.69499634206295,-2.00562,3.42528,-20.103091000000003,0.9935488093977598
15.798003226518631,-2.00562,3.42592,-19.885882,0.9935167989686438
15.901995822787285,-2.0048,3.42657,-19.885882,0.9934848016270279
16.00099951028824,-1.87741,3.43879,-19.885882,0.9934548374764277
16.095004230737686,-1.76308,3.45552,-20.103091000000003,0.9934266980744644
16.200002655386925,-1.72552,3.46452,-20.103091000000003,0.9933991581438453
16.300002112984657,-1.71245,3.46967,-20.103091000000003,0.993371826815209
16.395998373627663,-1.70755,3.47289,-20.103091000000003,0.9933445736923656
16.49799942970276,-1.7051,3.47546,-20.103091000000003,0.9933173596724189
16.59799888730049,-1.70347,3.47675,-20.103091000000003,0.9932901716678686
16.69599674642086,-1.70265,3.47868,-20.103091000000003,0.9932629967508183
16.79900363087654,-1.70184,3.47996,-20.103091000000003,0.9932358347616644
16.89700148999691,-1.70102,3.48061,-20.103091000000003,0.9932086858600107
16.997000947594643,-1.69857,3.48125,-20.103091000000003,0.9931815760612535
17.09900200366974,-1.6953,3.48254,-20.103091000000003,0.9931545184528927
17.19999723136425,-1.69449,3.48318,-20.103091000000003,0.9931274737724285
17.29600355029106,-1.69367,3.48382,-20.103091000000003,0.9931004421794642
17.4010019749403,-1.69367,3.48447,-20.103091000000003,0.9930734105865001
17.499995604157448,-1.69285,3.48447,-19.885882,0.993046392081036
17.59999506175518,-1.69285,3.48511,-19.885882,0.9930193735755718
17.69600138068199,-1.69285,3.48511,-19.885882,0.9929923550701076
17.796000838279724,-1.69204,3.48511,-19.885882,0.99296534949254
17.900003492832184,-1.69204,3.48575,-19.897306,0.9929383439149723
17.996995523571968,-1.40622,3.49605,-19.897306,0.9929159001291945
18.100998178124428,-1.40704,3.51406,-19.897306,0.9928934432559168
18.198000267148018,-1.40214,3.52436,-19.897306,0.9928710645884321
18.29700395464897,-1.39887,3.5295,-19.885882,0.992848738111344
18.40299814939499,-1.39642,3.53272,-19.885882,0.9928264507371524
18.50000023841858,-1.39479,3.53594,-19.885882,0.9928041893783572
18.595996499061584,-1.39397,3.53787,-19.897306,0.9927819411070622
18.702996522188187,-1.39315,3.53915,-19.897306,0.9927597059232671
18.79499964416027,-1.39234,3.54108,-19.885882,0.9927374836673686
18.897000700235367,-1.39234,3.54173,-19.885882,0.99271526141147
18.9970001578331,-1.38744,3.54301,-19.885882,0.9926931173613645
19.096003845334053,-1.38172,3.5443,-19.885882,0.992671064604552
19.197994843125343,-1.38009,3.54559,-19.885882,0.9926490378631361
19.294996932148933,-1.37927,3.54623,-19.885882,0.9926270242092202
19.401996955275536,-1.37845,3.54687,-19.885882,0.9926050236428043
19.498999044299126,-1.37845,3.54816,-19.897306,0.9925830230763886
19.601000100374222,-1.37845,3.54816,-19.897306,0.9925610225099727
19.69899795949459,-1.37764,3.5488,-19.885882,0.9925390348714532
19.798001646995544,-1.37764,3.54945,-19.885882,0.9925170472329339
19.895999506115913,-1.37764,3.54945,-19.885882,0.9924950595944144
19.99800056219101,-1.37192,3.55073,-19.885882,0.9924731632491881
20.09899578988552,-1.36702,3.55138,-19.885882,0.9924513451097549
20.200996845960617,-1.36539,3.55202,-19.885882,0.9924295529857181
20.302002131938934,-1.36539,3.55266,-19.885882,0.9924077608616813
20.399999991059303,-1.36539,3.55266,-19.885882,0.9923859687376445
20.499003678560257,-1.36457,3.55266,-19.885882,0.9923641897011077
20.602000504732132,-1.36457,3.55331,-19.885882,0.9923424106645711
20.699002593755722,-1.36457,3.55331,-19.885882,0.9923206316280343
20.799002051353455,-1.36457,3.55395,-19.885882,0.9922988525914976
20.896999910473824,-1.36376,3.55395,-19.885882,0.9922770864828573
20.996999368071556,-1.48216,3.54301,-19.885882,0.9922534306668909
21.09600305557251,-1.57526,3.52886,-19.885882,0.9922282889408564
21.198999881744385,-1.61201,3.51985,-19.885882,0.992202560671374
21.299995109438896,-1.62344,3.51535,-19.885882,0.9921766499749091
21.39899879693985,-1.62834,3.51213,-19.885882,0.992150661072651
21.501995623111725,-1.62997,3.50956,-19.885882,0.9921246461549966
21.59699611365795,-1.63161,3.50827,-19.897306,0.9920986050623419
21.69800139963627,-1.63324,3.50699,-19.897306,0.992072537954291
21.798000857234,-1.63406,3.5057,-19.897306,0.9920464577587398
21.90200351178646,-1.63406,3.50441,-19.897306,0.9920203775631886
21.998995542526245,-1.63242,3.50441,-19.897306,0.9919943235426376
22.10099659860134,-1.62997,3.50377,-19.897306,0.9919683086249832
22.19799868762493,-1.62997,3.50377,-19.897306,0.9919422937073287
22.299999743700027,-1.62997,3.50313,-19.897306,0.9919162787896743
22.39900343120098,-1.62916,3.50313,-19.897306,0.9918902767999161
22.49799706041813,-1.62997,3.50313,-19.885882,0.9918642618822617
22.599998116493225,-1.62997,3.50248,-19.885882,0.9918382469646072
22.70199917256832,-1.62997,3.50248,-19.897306,0.9918122320469528
22.801002860069275,-1.62916,3.50248,-19.897306,0.9917862300571947
22.8960033506155,-1.62997,3.50248,-19.897306,0.9917602151395402
22.996998578310013,-1.62589,3.50248,-19.897306,0.9917342653401787
23.09800386428833,-1.62262,3.50313,-19.897306,0.9917083677312138
23.201000690460205,-1.62181,3.50313,-19.897306,0.9916824830501454
23.298002779483795,-1.62181,3.50313,-19.897306,0.9916565983690768
23.39499481022358,-1.62181,3.50313,-19.885882,0.9916307136880084
23.496995866298676,-1.62099,3.50313,-19.885882,0.9916048420944399
23.600998520851135,-1.62181,3.50313,-19.885882,0.9915789574133714
23.69599901139736,-1.62181,3.50313,-19.885882,0.991553072732303
23.798995837569237,-1.62181,3.50313,-19.6915312,0.9915271880512345
23.89700375497341,-1.62099,3.50313,-19.6915312,0.991501316457666
23.99500161409378,-1.22738,3.52436,-19.6915312,0.9914817270237312
24.097002670168877,-1.11877,3.55781,-19.6915312,0.99146387104514
24.19700212776661,-1.08284,3.57583,-19.6915312,0.9914465885224967
24.299003183841705,-1.06814,3.58741,-19.6915312,0.9914295406172325
24.39599521458149,-1.06324,3.59384,-19.6915312,0.9914125709177614
24.495994672179222,-1.05997,3.59899,-19.6915312,0.9913956534086868
24.599997326731682,-1.05834,3.60349,-19.6915312,0.9913787619150087
24.699996784329414,-1.05752,3.60671,-19.6915312,0.9913618835088308
24.80100207030773,-1.05589,3.60928,-19.6915312,0.9913450311180493
24.896002560853958,-1.05507,3.61121,-19.6915312,0.9913281918147677
24.998003616929054,-1.16042,3.60285,-19.680097,0.9913096710869356
25.096001476049423,-1.25923,3.58869,-19.680097,0.991289573315346
25.198998302221298,-1.29108,3.58162,-19.680097,0.9912689672061014
25.298001989722252,-1.30006,3.57776,-19.6915312,0.9912482177727707
25.3969956189394,-1.30414,3.57518,-19.6915312,0.9912274032211471
25.498000904917717,-1.30578,3.57325,-19.6915312,0.9912065624945234
25.59800036251545,-1.30578,3.57261,-19.6915312,0.9911857217678998
25.69500245153904,-1.30659,3.57132,-19.680097,0.9911648681133796
25.797003507614136,-1.30659,3.57068,-19.680097,0.9911440144588595
25.895001366734505,-1.30741,3.57004,-19.680097,0.9911231477168393
25.995996594429016,-1.30251,3.57004,-19.680097,0.9911023591806122
26.099999248981476,-1.29843,3.57068,-19.680097,0.991081635762678
26.19599550962448,-1.29679,3.57068,-19.897306,0.9910609385197441
26.299002394080162,-1.29679,3.57068,-19.897306,0.99104024127681
26.399001851677895,-1.29679,3.57068,-19.680097,0.991019544033876
26.496999710798264,-1.29679,3.57068,-19.680097,0.990998846790942
26.597994938492775,-1.29598,3.57068,-19.680097,0.9909781624759044
26.69699862599373,-1.29679,3.57068,-19.680097,0.9909574652329703
26.799995452165604,-1.29598,3.57068,-19.680097,0.9909367809179328
26.899994909763336,-1.29679,3.57068,-19.680097,0.9909160836749987
26.99899859726429,-1.39152,3.56232,-19.680097,0.9908938745066003
27.09699645638466,-1.50258,3.54623,-19.680097,0.9908698927799615
27.20099911093712,-1.53933,3.53722,-19.680097,0.990845324509875
27.29800119996071,-1.55076,3.53208,-19.680097,0.9908205738128057
27.39800065755844,-1.55566,3.52886,-19.680097,0.9907957449099435
27.498000115156174,-1.55729,3.52693,-19.680097,0.9907708899916848
27.60099694132805,-1.55974,3.52436,-19.680097,0.9907459959705296
27.695997431874275,-1.55974,3.52307,-19.680097,0.9907211019493743
27.800000086426735,-1.56056,3.52178,-19.680097,0.9906961948407191
27.897997945547104,-1.56056,3.52114,-19.680097,0.9906712877320638
27.997001633048058,-1.55893,3.5205,-19.680097,0.990646406638805
28.099998459219933,-1.55648,3.5205,-19.680097,0.9906215646484426
28.199997916817665,-1.55648,3.5205,-19.680097,0.9905967226580804
28.29900160431862,-1.55648,3.51985,-19.680097,0.9905718806677181
28.39600369334221,-1.55648,3.51985,-19.680097,0.9905470386773557
28.49699892103672,-1.55566,3.51921,-19.680097,0.9905222097744936
28.598004207015038,-1.55648,3.51921,-19.680097,0.9904973677841312
28.694996237754822,-1.55648,3.51921,-19.680097,0.990472525793769
28.801000490784645,-1.55648,3.51857,-19.6915312,0.9904476838034066
28.898998349905014,-1.55648,3.51857,-19.6915312,0.9904228418130443
28.998997807502747,-1.65039,3.5102,-19.6915312,0.9903965009847175
29.103000462055206,-1.77941,3.49155,-19.6915312,0.9903681009499785
29.198000952601433,-1.81045,3.48382,-19.6915312,0.990339205505481
