Time,Voltage,Current,Temperature,SOC
0.0,4.10596,-1.80146,-10.158135999999999,0.9999753695794602
0.10200105607509613,4.01524,-1.84964,-10.158135999999999,0.9999507391589204
0.19700154662132263,3.95799,-1.88639,-10.158135999999999,0.9999261087383806
0.3000084310770035,3.90973,-1.91824,-10.158135999999999,0.9998965522337329
0.39800629019737244,3.8692,-1.94519,-10.158135999999999,0.9998719218131931
0.5000073462724686,3.84089,-1.96234,-10.1460292,0.9998423653085453
0.60100257396698,3.81516,-1.9803,-10.1460292,0.9998177348880055
0.6980046629905701,3.79714,-1.99174,-10.158135999999999,0.9997881783833578
0.7989998906850815,3.78106,-2.00398,-10.158135999999999,0.999763547962818
0.8980035781860352,3.76948,-2.01133,-10.158135999999999,0.9997339914581701
0.9989988058805466,3.77977,-1.56873,-10.158135999999999,0.9997142871217383
1.0989982634782791,3.7965,-1.48543,-10.158135999999999,0.9996945827853064
1.2009993195533752,3.80229,-1.46175,-10.158135999999999,0.9996748784488746
1.2970056384801865,3.80422,-1.4544,-10.158135999999999,0.9996551741124428
1.4010082930326462,3.80486,-1.45195,-10.158135999999999,0.999630543691903
1.4990061521530151,3.80422,-1.45113,-10.158135999999999,0.9996157654395791
1.597999781370163,3.80422,-1.45113,-10.1702428,0.9995960611031472
1.6990050673484802,3.80293,-1.45113,-10.1702428,0.9995714306826075
1.8010061234235764,3.80229,-1.45032,-10.158135999999999,0.9995517263461756
1.8980082124471664,3.80165,-1.45113,-10.158135999999999,0.9995369480938517
1.9990034401416779,3.78685,-1.65121,-10.158135999999999,0.999512317673312
2.101004496216774,3.77012,-1.79656,-10.158135999999999,0.9994876872527722
2.2010039538145065,3.75919,-1.85128,-10.158135999999999,0.9994630568322324
2.301003411412239,3.75339,-1.86679,-10.158135999999999,0.9994384264116926
2.3969996720552444,3.74889,-1.87333,-10.158135999999999,0.9994137959911528
2.501002326607704,3.74567,-1.87659,-10.158135999999999,0.999384239486505
2.599000185728073,3.7431,-1.87904,-10.158135999999999,0.9993596090659652
2.6989996433258057,3.74117,-1.88068,-10.158135999999999,0.9993349786454254
2.798999100923538,3.73924,-1.88068,-10.158135999999999,0.9993103482248856
2.9010001569986343,3.73795,-1.88231,-10.158135999999999,0.9992807917202379
2.9970064759254456,3.73023,-1.97867,-10.158135999999999,0.9992561612996981
3.1009990721940994,3.7193,-2.07748,-10.1702428,0.9992266047950503
3.1980011612176895,3.71222,-2.11096,-10.1702428,0.9991970482904025
3.2990064471960068,3.709,-2.12076,-10.158135999999999,0.9991674917857547
3.3990059047937393,3.70643,-2.12566,-10.158135999999999,0.999137935281107
3.5020027309656143,3.70386,-2.12811,-10.1702428,0.9991083787764592
3.601006418466568,3.70257,-2.12974,-10.1702428,0.9990788222718114
3.6979984492063522,3.70128,-2.13056,-10.1460292,0.9990541918512716
3.7990037351846695,3.7,-2.13138,-10.1460292,0.9990246353466239
3.899998962879181,3.69871,-2.13219,-10.1460292,0.9989950788419761
3.9990026503801346,3.72573,-1.45032,-10.158135999999999,0.9989753745055443
4.100007936358452,3.75726,-1.36702,-10.158135999999999,0.9989556701691125
4.200007393956184,3.77205,-1.33844,-10.158135999999999,0.9989359658326806
4.298005253076553,3.78235,-1.32537,-10.158135999999999,0.9989211875803568
4.401002079248428,3.78814,-1.32047,-10.158135999999999,0.9989014832439249
4.49700839817524,3.792,-1.31721,-10.158135999999999,0.9988817789074931
4.600005224347115,3.79393,-1.31639,-10.158135999999999,0.9988670006551692
4.702006280422211,3.7965,-1.31476,-10.158135999999999,0.9988472963187374
4.8009999096393585,3.79779,-1.31394,-10.158135999999999,0.9988275919823055
4.898001998662949,3.79907,-1.31394,-10.158135999999999,0.9988128137299817
5.000003054738045,3.79972,-1.31557,-10.158135999999999,0.9987931093935498
5.099006742238998,3.80036,-1.31721,-10.158135999999999,0.998773405057118
5.2010077983140945,3.801,-1.31802,-10.1460292,0.9987586268047941
5.300001427531242,3.801,-1.31802,-10.1460292,0.9987389224683623
5.402998253703117,3.801,-1.31721,-10.1460292,0.9987192181319304
5.501006171107292,3.80165,-1.31802,-10.1460292,0.9987044398796066
5.598008260130882,3.80165,-1.31721,-10.1460292,0.9986847355431747
5.69700188934803,3.80165,-1.31721,-10.1460292,0.9986650312067428
5.798007175326347,3.80165,-1.31721,-10.1460292,0.9986502529544189
5.901004001498222,3.80165,-1.31802,-10.1460292,0.9986305486179871
6.000007688999176,3.80165,-1.31966,-10.1460292,0.9986108442815552
6.100007146596909,3.801,-1.32211,-10.1460292,0.9985960660292313
6.199000775814056,3.801,-1.32292,-10.1460292,0.9985763616927995
6.3010018318891525,3.801,-1.32292,-10.1460292,0.9985566573563677
6.398003920912743,3.801,-1.32292,-10.1460292,0.9985418791040438
6.498003378510475,3.80036,-1.32292,-10.158135999999999,0.998522174767612
6.60100020468235,3.80036,-1.32374,-10.158135999999999,0.9985024704311801
6.700003892183304,3.80036,-1.32292,-10.158135999999999,0.9984876921788562
6.798001751303673,3.80036,-1.32292,-10.158135999999999,0.9984679878424244
6.8970054388046265,3.80036,-1.32374,-10.158135999999999,0.9984482835059926
6.999006494879723,3.77784,-2.14118,-10.158135999999999,0.9984187270013448
7.100001722574234,3.73795,-2.15016,-10.158135999999999,0.9983891704966971
7.201007008552551,3.71801,-2.16568,-10.158135999999999,0.9983596139920493
7.301006466150284,3.70707,-2.17629,-10.158135999999999,0.9983300574874016
7.400000095367432,3.7,-2.18282,-10.158135999999999,0.9983005009827538
7.4980080127716064,3.69485,-2.18854,-10.158135999999999,0.998270944478106
7.6010048389434814,3.69035,-2.19181,-10.158135999999999,0.9982413879734583
7.69900269806385,3.68842,-2.19344,-10.158135999999999,0.9982118314688105
7.8010037541389465,3.68584,-2.19589,-10.158135999999999,0.9981822749641628
7.8990016132593155,3.68455,-2.19671,-10.158135999999999,0.998152718459515
7.9969994723796844,3.69742,-1.808,-10.158135999999999,0.9981280880389751
8.098004758358002,3.71093,-1.80555,-10.158135999999999,0.9981034576184353
8.198999986052513,3.71801,-1.80065,-10.158135999999999,0.9980788271978955
8.298999443650246,3.72187,-1.79656,-10.158135999999999,0.9980541967773557
8.400004729628563,3.7238,-1.79493,-10.158135999999999,0.998029566356816
8.497006818652153,3.72573,-1.7933,-10.158135999999999,0.9980049359362761
8.600003644824028,3.72637,-1.79248,-10.158135999999999,0.9979803055157364
8.698001503944397,3.72702,-1.79248,-10.158135999999999,0.9979556750951966
8.800002560019493,3.72702,-1.79248,-10.158135999999999,0.9979310446746568
8.900002017617226,3.72702,-1.79248,-10.158135999999999,0.997906414254117
9.000001475214958,3.74117,-1.59404,-10.158135999999999,0.9978817838335772
9.099005162715912,3.75919,-1.44133,-10.158135999999999,0.9978620794971453
9.200000390410423,3.76691,-1.40295,-10.158135999999999,0.9978423751607135
9.299004077911377,3.77141,-1.38825,-10.158135999999999,0.9978275969083896
9.39800776541233,3.77527,-1.38254,-10.158135999999999,0.9978078925719578
9.499002993106842,3.7772,-1.38009,-10.158135999999999,0.997788188235526
9.599002450704575,3.77913,-1.37927,-10.158135999999999,0.9977684838990941
9.70100350677967,3.78042,-1.37845,-10.158135999999999,0.9977487795626623
9.79900136590004,3.78106,-1.37764,-10.158135999999999,0.9977290752262304
9.899000823497772,3.7817,-1.37764,-10.158135999999999,0.9977142969739066
10.00000610947609,3.78878,-1.28291,-10.158135999999999,0.9976945926374747
10.100005567073822,3.79907,-1.20043,-10.158135999999999,0.9976798143851509
10.200005024671555,3.80422,-1.1792,-10.158135999999999,0.997660110048719
10.300004482269287,3.80744,-1.17185,-10.158135999999999,0.9976453317963951
10.400999709963799,3.80937,-1.1694,-10.158135999999999,0.9976305535440713
10.500003397464752,3.8113,-1.16777,-10.158135999999999,0.9976157752917474
10.599007084965706,3.81194,-1.16777,-10.1460292,0.9975960709553154
10.701008141040802,3.81323,-1.16695,-10.1460292,0.9975812927029916
10.802003368735313,3.81387,-1.16695,-10.1460292,0.9975665144506677
10.89700385928154,3.81451,-1.16695,-10.1460292,0.9975517361983438
10.999004915356636,3.82224,-1.06324,-10.1460292,0.9975369579460199
11.101005971431732,3.83189,-0.99056,-10.1460292,0.997522179693696
11.197002232074738,3.83639,-0.96933,-10.1460292,0.9975074014413722
11.299003288149834,3.84025,-0.96116,-10.1460292,0.9974975492731563
11.402000114321709,3.84282,-0.95871,-10.1460292,0.9974827710208324
11.500008031725883,3.84475,-0.9579,-10.1460292,0.9974679927685085
11.598005890846252,3.84604,-0.95708,-10.1460292,0.9974581406002926
11.698005348443985,3.84733,-0.95626,-10.1460292,0.9974433623479687
11.798004806041718,3.84797,-0.95626,-10.1460292,0.9974285840956448
11.89800426363945,3.84926,-0.95626,-10.1460292,0.9974187319274289
12.001001089811325,3.84926,-0.95463,-10.1460292,0.997403953675105
12.100004777312279,3.85054,-0.953,-10.1460292,0.9973891754227812
12.20100000500679,3.85119,-0.953,-10.158135999999999,0.9973793232545652
12.297006323933601,3.85119,-0.953,-10.158135999999999,0.9973645450022414
12.400003150105476,3.85183,-0.953,-9.928149999999999,0.9973497667499175
12.502004206180573,3.85183,-0.953,-9.928149999999999,0.9973399145817016
12.597004696726799,3.85183,-0.953,-10.158135999999999,0.9973251363293777
12.702003121376038,3.85247,-0.95218,-10.158135999999999,0.9973103580770538
12.799005210399628,3.85247,-0.953,-10.158135999999999,0.9973005059088379
12.89900466799736,3.85247,-0.95218,-10.158135999999999,0.997285727656514
12.999004125595093,3.87949,-0.14617,-10.158135999999999,0.997285727656514
13.099003583192825,3.91874,-0.15189,-9.940246,0.9972808015724061
13.198007270693779,3.93868,-0.15189,-9.940246,0.9972808015724061
13.301004096865654,3.95219,-0.15189,-10.158135999999999,0.9972808015724061
13.400007784366608,3.96249,-0.15189,-10.158135999999999,0.9972758754882981
13.496999815106392,3.97021,-0.15107,-9.940246,0.9972758754882981
13.601002469658852,3.97793,-0.15026,-9.940246,0.9972709494041901
13.698004558682442,3.98372,-0.15026,-10.00078,0.9972709494041901
13.801001384854317,3.98951,-0.15026,-10.00078,0.9972660233200822
13.90000507235527,3.99466,-0.15026,-10.158135999999999,0.9972660233200822
13.998998701572418,4.0019,-0.09228,-10.158135999999999,0.9972660233200822
14.102005586028099,4.01348,-0.03267,-10.158135999999999,0.9972660233200822
14.200003445148468,4.02056,-0.01715,-10.158135999999999,0.9972660233200822
14.3000029027462,4.02764,-0.00898,-10.1702428,0.9972660233200822
14.401008188724518,4.03407,-0.00245,-10.1702428,0.9972660233200822
14.498000219464302,4.03858,-0.00082,-10.1702428,0.9972660233200822
14.597999677062035,4.04372,-0.00082,-9.940246,0.9972660233200822
14.699004963040352,4.04823,0.0,-9.940246,0.9972660233200822
14.802001789212227,4.05209,-0.00082,-10.158135999999999,0.9972660233200822
14.898008108139038,4.05595,0.0,-10.158135999999999,0.9972660233200822
14.99900333583355,4.05835,-0.02613,-9.928149999999999,0.9972660233200822
15.101004391908646,4.05513,-0.09064,-9.928149999999999,0.9972610972359742
15.201003849506378,4.05385,-0.11269,-9.940246,0.9972610972359742
15.30100330710411,4.05385,-0.11841,-9.940246,0.9972610972359742
15.3980053961277,4.05449,-0.12004,-9.928149999999999,0.9972561711518663
15.500006452202797,4.05449,-0.12004,-9.928149999999999,0.9972561711518663
15.596998482942581,4.05513,-0.12004,-9.928149999999999,0.9972561711518663
15.701001137495041,4.05578,-0.12004,-10.158135999999999,0.9972512450677583
15.798003226518631,4.05642,-0.12086,-10.158135999999999,0.9972512450677583
15.898998454213142,4.05706,-0.12004,-10.158135999999999,0.9972512450677583
16.00000374019146,4.04548,-0.2899,-10.158135999999999,0.9972463189836503
16.100003197789192,4.02747,-0.42628,-9.928149999999999,0.9972413928995424
16.20100848376751,4.01846,-0.45894,-9.928149999999999,0.9972315407313265
16.29900634288788,4.0101,-0.47119,-10.158135999999999,0.9972266146472185
16.40000157058239,4.00431,-0.47446,-10.158135999999999,0.9972216885631106
16.500001028180122,3.99852,-0.47609,-10.158135999999999,0.9972167624790026
16.600000485777855,3.99401,-0.47691,-10.158135999999999,0.9972069103107867
16.70200154185295,3.98951,-0.47772,-9.940246,0.9972019842266787
16.802000999450684,3.98565,-0.47854,-9.940246,0.9971970581425708
16.901004686951637,3.98243,-0.47854,-9.940246,0.9971872059743548
16.998006775975227,3.976,-0.54224,-9.940246,0.9971822798902469
17.101003602147102,3.96378,-0.62553,-9.940246,0.997172427722031
17.200007289648056,3.95606,-0.64758,-9.940246,0.997162575553815
17.301002517342567,3.94962,-0.65493,-9.940246,0.9971527233855991
17.399000376462936,3.94576,-0.65656,-9.928149999999999,0.9971477973014912
17.496998235583305,3.94126,-0.6582,-9.928149999999999,0.9971379451332752
17.598003521561623,3.93868,-0.65901,-10.158135999999999,0.9971280929650593
17.70000457763672,3.93547,-0.65983,-10.158135999999999,0.9971182407968434
17.802005633711815,3.93289,-0.65983,-10.158135999999999,0.9971083886286275
17.899007722735405,3.93096,-0.66065,-10.158135999999999,0.9970985364604116
17.999007180333138,3.92903,-0.6582,-10.158135999999999,0.9970936103763036
18.098000809550285,3.92775,-0.65656,-10.158135999999999,0.9970837582080876
18.198000267148018,3.92646,-0.65656,-10.1460292,0.9970739060398717
18.29799972474575,3.92517,-0.65656,-10.1460292,0.9970640538716558
18.400000780820847,3.92389,-0.65738,-10.1460292,0.9970542017034398
18.497998639941216,3.92324,-0.65656,-9.928149999999999,0.9970443495352239
18.599003925919533,3.9226,-0.65656,-9.928149999999999,0.997039423451116
18.6970017850399,3.92196,-0.65738,-9.928149999999999,0.9970295712829
18.79800707101822,3.92131,-0.65738,-9.928149999999999,0.9970197191146841
18.901999667286873,3.92067,-0.65738,-9.928149999999999,0.9970098669464682
18.9970001578331,3.91552,-0.72434,-9.928149999999999,0.9970000147782523
19.10000704228878,3.90459,-0.81254,-9.928149999999999,0.9969901626100364
19.19800490140915,3.89944,-0.83132,-9.928149999999999,0.9969803104418204
19.300005957484245,3.89622,-0.83785,-9.928149999999999,0.9969655321894966
19.40200701355934,3.89301,-0.84112,-9.928149999999999,0.9969556800212807
19.498999044299126,3.89108,-0.84194,-9.928149999999999,0.9969458278530647
19.602005928754807,3.88915,-0.84275,-9.928149999999999,0.9969310496007409
19.700999557971954,3.88721,-0.84275,-10.158135999999999,0.9969211974325249
19.80200484395027,3.88593,-0.84275,-10.158135999999999,0.9969064191802011
19.898001104593277,3.88464,-0.84357,-9.9644596,0.9968965670119851
20.000002160668373,3.884,-0.84112,-9.9644596,0.9968867148437692
20.099005848169327,3.88335,-0.8403,-9.9644596,0.9968768626755533
20.19900530576706,3.88271,-0.83949,-9.9644596,0.9968620844232294
20.299004763364792,3.88271,-0.83949,-9.940246,0.9968522322550135
20.399004220962524,3.88207,-0.83867,-9.940246,0.9968423800867976
20.497002080082893,3.88142,-0.83949,-10.158135999999999,0.9968276018344737
20.59800736606121,3.88078,-0.83949,-10.158135999999999,0.9968177496662578
20.699002593755722,3.88078,-0.83949,-10.158135999999999,0.9968078974980419
20.80000787973404,3.88014,-0.83949,-10.158135999999999,0.996793119245718
20.89800573885441,3.88014,-0.8403,-10.158135999999999,0.9967832670775021
21.000006794929504,3.89301,-0.65493,-10.158135999999999,0.9967734149092862
21.09699882566929,3.90973,-0.5161,-10.158135999999999,0.9967684888251782
21.20000571012497,3.92003,-0.47527,-10.158135999999999,0.9967586366569623
21.298999339342117,3.92646,-0.46302,-10.158135999999999,0.9967537105728543
21.400004625320435,3.93096,-0.45894,-10.158135999999999,0.9967487844887464
21.49900831282139,3.93482,-0.45812,-10.158135999999999,0.9967389323205305
21.602005138993263,3.93804,-0.45731,-9.928149999999999,0.9967340062364225
21.700002998113632,3.94061,-0.45649,-9.928149999999999,0.9967290801523145
21.800002455711365,3.94319,-0.45649,-9.940246,0.9967241540682066
21.900001913309097,3.94512,-0.45649,-9.940246,0.9967143018999907
22.001007199287415,3.95879,-0.01143,-9.940246,0.9967143018999907
22.0979992300272,3.9826,-0.0098,-9.940246,0.9967143018999907
22.197002917528152,3.99611,-0.0098,-9.940246,0.9967143018999907
22.297002375125885,4.00769,-0.00653,-9.928149999999999,0.9967143018999907
22.39999920129776,4.0167,-0.00245,-9.928149999999999,0.9967143018999907
22.501004487276077,4.02442,-0.00082,-9.928149999999999,0.9967143018999907
22.599002346396446,4.03021,-0.00082,-9.928149999999999,0.9967143018999907
22.701003402471542,4.03665,0.0,-9.940246,0.9967143018999907
22.800007089972496,4.04179,0.0,-9.940246,0.9967143018999907
22.901002317667007,4.0463,-0.00082,-9.940246,0.9967143018999907
22.996998578310013,4.0508,0.0,-9.940246,0.9967143018999907
23.09800386428833,4.05466,0.0,-9.940246,0.9967143018999907
23.197007551789284,4.05916,-0.00082,-9.940246,0.9967143018999907
23.30000437796116,4.06238,-0.00082,-9.940246,0.9967143018999907
23.40099960565567,4.0656,-0.00082,-9.940246,0.9967143018999907
23.49800169467926,4.06882,-0.00082,-9.940246,0.9967143018999907
23.597005382180214,4.07203,0.0,-9.940246,0.9967143018999907
23.698000609874725,4.07461,0.0,-9.940246,0.9967143018999907
23.79700429737568,4.07718,0.0,-9.940246,0.9967143018999907
23.899005353450775,4.07975,0.0,-9.940246,0.9967143018999907
24.000000581145287,4.08233,-0.00082,-9.940246,0.9967143018999907
24.101005867123604,4.08426,0.0,-9.940246,0.9967143018999907
24.19700212776661,4.08683,0.0,-9.940246,0.9967143018999907
24.298007413744926,4.08812,0.0,-9.940246,0.9967143018999907
24.399002641439438,4.09069,0.0,-9.940246,0.9967143018999907
24.49800632894039,4.09198,-0.00082,-9.940246,0.9967143018999907
24.601003155112267,4.09391,0.0,-9.940246,0.9967143018999907
24.698005244135857,4.09584,0.0,-9.940246,0.9967143018999907
24.79800470173359,4.09712,0.0,-9.940246,0.9967143018999907
24.90200735628605,4.09905,-0.00082,-9.940246,0.9967143018999907
24.998003616929054,4.0997,-0.00082,-9.940246,0.9967143018999907
25.097007304430008,4.10163,0.0,-9.940246,0.9967143018999907
25.19700676202774,4.10291,-0.00082,-9.940246,0.9967143018999907
25.298001989722252,4.1042,-0.00082,-10.158135999999999,0.9967143018999907
25.397005677223206,4.10549,0.0,-10.158135999999999,0.9967143018999907
25.497005134820938,4.10678,0.0,-10.158135999999999,0.9967143018999907
25.599006190896034,4.10806,-0.00082,-10.158135999999999,0.9967143018999907
25.699005648493767,4.10871,0.0,-10.158135999999999,0.9967143018999907
25.800000876188278,4.10999,0.0,-10.158135999999999,0.9967143018999907
25.899004563689232,4.11064,0.0,-10.158135999999999,0.9967143018999907
25.9970024228096,4.09245,-0.91951,-10.158135999999999,0.9967044497317747
26.10100507736206,4.04934,-0.85255,-10.158135999999999,0.9966896714794509
26.19800716638565,4.01975,-0.83867,-9.928149999999999,0.996679819311235
26.298006623983383,4.00109,-0.83949,-9.928149999999999,0.996669967143019
26.401003450155258,3.98372,-0.84194,-9.940246,0.9966551888906952
26.50100290775299,3.96828,-0.84602,-9.940246,0.9966453367224792
26.601002365350723,3.95799,-0.84765,-9.9160432,0.9966354845542633
26.698004454374313,3.94512,-0.85092,-9.9160432,0.9966207063019394
26.80100128054619,3.93547,-0.85337,-9.928149999999999,0.9966108541337235
26.898999139666557,3.92839,-0.855,-9.928149999999999,0.9965960758813996
26.99899859726429,3.884,-1.88639,-9.928149999999999,0.9965714454608599
27.100003883242607,3.83382,-1.90681,-9.928149999999999,0.9965468150403199
27.20000334084034,3.80036,-1.92967,-10.158135999999999,0.9965172585356722
27.29700542986393,3.77913,-1.94519,-10.158135999999999,0.9964926281151324
27.400002256035805,3.76176,-1.95907,-10.158135999999999,0.9964679976945926
27.500001713633537,3.74889,-1.96805,-10.158135999999999,0.9964384411899448
27.60000117123127,3.73988,-1.9754,-10.158135999999999,0.996413810769405
27.700000628829002,3.73345,-1.97949,-9.928149999999999,0.9963842542647573
27.800000086426735,3.7283,-1.98357,-9.928149999999999,0.9963596238442175
27.89900377392769,3.72316,-1.98684,-9.928149999999999,0.9963300673395697
27.99900323152542,3.70579,-2.37228,-9.928149999999999,0.996300510834922
28.099002689123154,3.68584,-2.40413,-10.158135999999999,0.9962660282461663
28.20000797510147,3.67426,-2.42128,-10.158135999999999,0.9962315456574106
28.29800583422184,3.66783,-2.43026,-10.158135999999999,0.9962019891527628
